# tbabs - normalized to nH = 1e20 cm-2
# 1: Rest-frame wavelength [um]
# 2: Rest-frame energy [keV]
# 3: exp(-tau)
6.199209921660011724e-05 2.000000000000000355e+01 1.000000000000000000e+00
6.440571907508455560e-05 1.925049517553848943e+01 1.000000000000000000e+00
6.691331156709631560e-05 1.852907822517153136e+01 1.000000000000000000e+00
6.951853545265974433e-05 1.783469654904197199e+01 1.000000000000000000e+00
7.222519194311082685e-05 1.716633699372625088e+01 1.000000000000000000e+00
7.503723024734140908e-05 1.652302437396975421e+01 1.000000000000000000e+00
7.795875333398266638e-05 1.590382004982047803e+01 1.000000000000000000e+00
8.099402391793491108e-05 1.530782055708505318e+01 1.000000000000000000e+00
8.414747067997889853e-05 1.473415628910871966e+01 1.000000000000000000e+00
8.742369472854359344e-05 1.418199022795587361e+01 1.000000000000000000e+00
9.082747631305864583e-05 1.365051672313992626e+01 1.000000000000000000e+00
9.436378179868617762e-05 1.313896031612061677e+01 1.000000000000000000e+00
9.803777091260891974e-05 1.264657460885356599e+01 1.000000000000000000e+00
1.018548042724480563e-04 1.217264117474115537e+01 1.000000000000000000e+00
1.058204512077948818e-04 1.171646851039578685e+01 9.999286503848872076e-01
1.099404978862679206e-04 1.127739102668612325e+01 9.999205403327554587e-01
1.142209557559525988e-04 1.085476807759410178e+01 9.999115321836452575e-01
1.186680703165419190e-04 1.044798302546572089e+01 9.999015297233516675e-01
1.232883302319754076e-04 1.005644234129179360e+01 9.998904268569330789e-01
1.280884767978721236e-04 9.679574738705921888e+00 9.998781067440075665e-01
1.330755137775714537e-04 9.316830340436119684e+00 9.998644406784109595e-01
1.382567176211341056e-04 8.967679875993805894e+00 9.998492870179741532e-01
1.436396480822127171e-04 8.631613909429617593e+00 9.998324899932778953e-01
1.492321592482827026e-04 8.308142096029278889e+00 9.998164520432692992e-01
1.550424110003273696e-04 7.996792466864984128e+00 9.997986746181073414e-01
1.610788809186986827e-04 7.697110740158344733e+00 9.997765334011247118e-01
1.673503766525245742e-04 7.408659658450185148e+00 9.997520225346504530e-01
1.738660487707101591e-04 7.131018350610087708e+00 9.997247693835505933e-01
1.806354041132833988e-04 6.863781717754788403e+00 9.997811177616174882e-01
1.876683196625673509e-04 6.606559842179391850e+00 9.998430135958710219e-01
1.949750569544170492e-04 6.358977418439033968e+00 9.998244015724946365e-01
2.025662770505468632e-04 6.120673205750934542e+00 9.998036200085590464e-01
2.104530560937955283e-04 5.891299500917796195e+00 9.997813831911143145e-01
2.186469014690253158e-04 5.670521631003516916e+00 9.997565480261872972e-01
2.271597685932347905e-04 5.458017465020992276e+00 9.997278566343976713e-01
2.360040783593825666e-04 5.253476943919564768e+00 9.996958480374884548e-01
2.451927352593735471e-04 5.056601628186307984e+00 9.996601486650483759e-01
2.547391462126530164e-04 4.867104262401029224e+00 9.996203445906365337e-01
2.646572401278787464e-04 4.684708356109690719e+00 9.995759771417654926e-01
2.749614882262122243e-04 4.509147780404717309e+00 9.995265385302722905e-01
2.856669251558835009e-04 4.340166379623550341e+00 9.994714670229727371e-01
2.967891709288383514e-04 4.177517597598875199e+00 9.994101413117373323e-01
3.083444537114732862e-04 4.020964117915213798e+00 9.993488210252119419e-01
3.203496335027115980e-04 3.870277517647005450e+00 9.992804654262933406e-01
3.328222267339685475e-04 3.725237934072934021e+00 9.991973510834942784e-01
3.457804318269009107e-04 3.585633743880198843e+00 9.991048936649470358e-01
3.592431557462297991e-04 3.451261254390688649e+00 9.990020837104298668e-01
3.732300415863782782e-04 3.321924406358539361e+00 9.988878090902939544e-01
3.877614972321753858e-04 3.197434487905427503e+00 9.987736146199357457e-01
4.028587251354469930e-04 3.077609859176190454e+00 9.986463872199112801e-01
4.185437532509373262e-04 2.962275687313046912e+00 9.984919203304204460e-01
4.348394671766981669e-04 2.851263691361735297e+00 9.983203863622881480e-01
4.517696435458419188e-04 2.744411896737354528e+00 9.981313536078111337e-01
4.693589847183811782e-04 2.641564398891643517e+00 9.979215926382521973e-01
4.876331548237713824e-04 2.542571135836890317e+00 9.976875845599326720e-01
5.066188172067438104e-04 2.447287669194571080e+00 9.975071747148045453e-01
5.263436733310657882e-04 2.355574973449243714e+00 9.973051886473671690e-01
5.468365031979937783e-04 2.267299233100193323e+00 9.970002173865245565e-01
5.681272073383924169e-04 2.182331647414868847e+00 9.966619608214976056e-01
5.902468504397844580e-04 2.100548242499242768e+00 9.962869901008587492e-01
6.132277066719914746e-04 2.021829690410873681e+00 9.958715563224227463e-01
6.371033067774973689e-04 1.946061135050749957e+00 9.954115672687777749e-01
6.619084869952451345e-04 1.873132024579870825e+00 9.949025638732399424e-01
6.876794398892447811e-04 1.802935950116070218e+00 9.945875743849909023e-01
7.144537671561575947e-04 1.735370490475713678e+00 9.942338506537083953e-01
7.422705344889108737e-04 1.670337062733729283e+00 9.935890486494842744e-01
7.711703285763895710e-04 1.607740778383939029e+00 9.928752861087972725e-01
8.011953163223694370e-04 1.547490304889824086e+00 9.921100678271593809e-01
8.323893063700983468e-04 1.489497732423705534e+00 9.912636541829467074e-01
8.647978130222972121e-04 1.433678445599902984e+00 9.903039424269509672e-01
8.984681226498439800e-04 1.379951000014722595e+00 9.892445553497334343e-01
9.334493626860301211e-04 1.328237003413144990e+00 9.880761238942766811e-01
9.697925733070604905e-04 1.278461001308820899e+00 9.871791750357636896e-01
1.007550781903388459e-03 1.230550366890478031e+00 9.861849715683961293e-01
1.046779080450541697e-03 1.184435195054113210e+00 9.846948351790347775e-01
1.087534705892324221e-03 1.140048200406358569e+00 9.830550423759222278e-01
1.129877123653681963e-03 1.097324619090195741e+00 9.812524506456713480e-01
1.173868114405089789e-03 1.056202114289771066e+00 9.792963377527099667e-01
1.219571864205049993e-03 1.016620685276439451e+00 9.771605101268039384e-01
1.267055058152223926e-03 9.785225798633354621e-01 9.747961725671109301e-01
1.316386977683841990e-03 9.418522101407301728e-01 9.721981286478680317e-01
1.367639601662371104e-03 9.065560713692188965e-01 9.693596625524070198e-01
1.420887711397912385e-03 8.725826639124132367e-01 9.663458200489223326e-01
1.476208999759578630e-03 8.398824180952211282e-01 9.652558227369842925e-01
1.533684184535046317e-03 8.084076218780822387e-01 9.639307312690316154e-01
1.593397126203685609e-03 7.781123512416278087e-01 9.601792820753626279e-01
1.655434950295105742e-03 7.489524031801928494e-01 9.559538061769524697e-01
1.719888174511645731e-03 7.208852312064125689e-01 9.475603769822098510e-01
1.786850840800293088e-03 6.938698832727993038e-01 9.457199173816445148e-01
1.856420652566731890e-03 6.678669420197234086e-01 9.475099718943306160e-01
1.928699117231724844e-03 6.428384672626160645e-01 9.421711617257814142e-01
2.003791694337831580e-03 6.187479406344770227e-01 9.363499086512100389e-01
2.081807949422558989e-03 5.955602123029184458e-01 9.300121060077956026e-01
2.162861713882459954e-03 5.732414496840001483e-01 9.225688093095699704e-01
2.247071251061426213e-03 5.517590880780264273e-01 9.108343661168749605e-01
2.334559428805520111e-03 5.310817831552778756e-01 9.210518577308706156e-01
2.425453898736106093e-03 5.111793652223524109e-01 9.372303093898542992e-01
2.519887282502862851e-03 4.920227952023857876e-01 9.310616915638187940e-01
2.617997365288424454e-03 4.735841222649241899e-01 9.233041828411812091e-01
2.719927296846994923e-03 4.558364430436274151e-01 9.147779758128719019e-01
2.825825800370262812e-03 4.387538623822984651e-01 9.053281421799620476e-01
2.935847389485365076e-03 4.223114555519654756e-01 8.949124737399163365e-01
3.050152593701520656e-03 4.064852318838871881e-01 8.834280735815098762e-01
3.168908192634272477e-03 3.912520997654204691e-01 8.743163753776870273e-01
3.292287459349087925e-03 3.765898329476762840e-01 8.641626349029585263e-01
3.420470413179380140e-03 3.624770381158041732e-01 8.494483500989186142e-01
3.553644082387820858e-03 3.488931236745882458e-01 8.335424316271596856e-01
3.692002777054192910e-03 3.358182697038105680e-01 8.161435148446549714e-01
3.835748372587948710e-03 3.232333990395441781e-01 7.970108718084457644e-01
3.985090604279122560e-03 3.111201494391824807e-01 7.762137405085569597e-01
4.140247373317399240e-03 2.994608467895896187e-01 7.536386778042204471e-01
4.301445064725809876e-03 2.882384793192830919e-01 7.406095126304732545e-01
4.468918877672962628e-03 2.774366727770203322e-01 7.261265566804911975e-01
4.642913168645759064e-03 2.670396665405738723e-01 6.987096949842113158e-01
4.823681807983297258e-03 2.570322906208360458e-01 6.692826573469227158e-01
5.011488550292180454e-03 2.473999435277003944e-01 6.383815384840940688e-01
5.206607419283694818e-03 2.381285709654244187e-01 6.055449373789095757e-01
5.409323107594353301e-03 2.292046453263887340e-01 5.705642248424664942e-01
5.619931392173180967e-03 2.206151459533327031e-01 5.338862863161562000e-01
5.838739565841822091e-03 2.123475401412674157e-01 4.955910632696624019e-01
6.066066885657137205e-03 2.043897648513465781e-01 4.561445868783031710e-01
6.302245038730497698e-03 1.967302091100145700e-01 4.158609435001827115e-01
6.547618626183427867e-03 1.893576970677505467e-01 3.751279560569022453e-01
6.802545665945735308e-03 1.822614716926904410e-01 3.344436022970787570e-01
7.067398115129736383e-03 1.754311790753339817e-01 2.943255066070974424e-01
7.342562412742763105e-03 1.688568533214371836e-01 2.561791118024662195e-01
7.628440043529815390e-03 1.625289020110467497e-01 2.194704015289312138e-01
7.925448123769036554e-03 1.564380922024610765e-01 1.841386228305695871e-01
8.234020009874727652e-03 1.505755369606960048e-01 1.515968746878103568e-01
8.554605930695916016e-03 1.449326823907997053e-01 1.221457648206522445e-01
8.887673644433017814e-03 1.395012951570970272e-01 9.605306644864361476e-02
9.233709121131125630e-03 1.342734504701532661e-01 7.358116704027352351e-02
9.593217251745670554e-03 1.292415205239295095e-01 5.476254733643443062e-02
9.966722584815096431e-03 1.243981633662581132e-01 3.948345042312242925e-02
1.035477009181537227e-02 1.197363121863999486e-01 2.748802444330434094e-02
1.075792596231304674e-02 1.152491650040530641e-01 1.841285352729746250e-02
1.117677843007705736e-02 1.109301747447680730e-01 1.182221878020662566e-02
1.161193863135462877e-02 1.067730396872899057e-01 7.245001614690036763e-03
1.206404149656354827e-02 1.027716942688876312e-01 4.233918105761450522e-03
1.253374667670187868e-02 9.892030023525684446e-02 2.337331060834437532e-03
1.302173950582679977e-02 9.521323812208147552e-02 1.207357397932104634e-03
1.352873200100688199e-02 9.164509905582628180e-02 5.826812905290569078e-04
1.405546390120684767e-02 8.821067686179648315e-02 2.607134005834579882e-04
1.460270374662057079e-02 8.490496046794984708e-02 1.069543153472748428e-04
1.517125000002718209e-02 8.172312659337768737e-02 3.997968139955099856e-05
1.576193221180640161e-02 7.866053271078686515e-02 1.354170450063132595e-05
1.637561223031293312e-02 7.571271027271446463e-02 4.116714828772024698e-06
1.701318545937598181e-02 7.287535819159160488e-02 1.115599716977503112e-06
1.767558216475861171e-02 7.014433656414363616e-02 2.684442769924075048e-07
1.836376883148325284e-02 6.751566063096971215e-02 5.778132117623918019e-08
1.907874957400370122e-02 6.498549496248878787e-02 1.379667228464861722e-08
1.982156760128122794e-02 6.255014786276850980e-02 1.958254540632678909e-09
2.059330673890239286e-02 6.020606598307218921e-02 4.707242373370012958e-08
2.139509301045951564e-02 5.794982913726411805e-02 2.851877965183102852e-09
2.222809628050105221e-02 5.577814531150909749e-02 6.009458715228460488e-13
2.309353196144917769e-02 5.368784586098450384e-02 4.574179294247945765e-14
2.399266278697498658e-02 5.167588088659678253e-02 2.306604584689413247e-15
2.492680065441886528e-02 4.973931478495662029e-02 8.273542522865066756e-17
2.589730853894423035e-02 4.787532196511985055e-02 2.093085133278090057e-18
2.690560248221752701e-02 4.608118272584454944e-02 3.631859727621691907e-20
2.795315365851613193e-02 4.435427928734887726e-02 4.166961567814009194e-22
2.904149052127873165e-02 4.269209197177979004e-02 3.028308059490158840e-24
3.017220103323017821e-02 4.109219552681959292e-02 1.327689114815418835e-26
3.134693498333473299e-02 3.955225558706621652e-02 3.326019188236398066e-29
3.256740639395826892e-02 3.807002526802415188e-02 4.485607384764670384e-32
3.383539602175172911e-02 3.664334188773633871e-02 3.051809413763732892e-35
3.515275395590469754e-02 3.527012381127377083e-02 9.768270711201335846e-39
3.652140231756028504e-02 3.394836741347852238e-02 1.366229510539092183e-42
3.794333806432976380e-02 3.267614415552880236e-02 7.721837945777317100e-47
3.942063590399919049e-02 3.145159777106035226e-02 1.624411450264615429e-51
4.095545132167906915e-02 3.027294155773870010e-02 1.165801666055847747e-56
4.255002372481409001e-02 2.913845577033035567e-02 6.382677681036429148e-62
4.420667971064164842e-02 2.804648511146929160e-02 1.651463522366635824e-67
4.592783646086661536e-02 2.699543631645756614e-02 8.302371852329544980e-74
4.771600526850543200e-02 2.598377582857612847e-02 1.150299141507422831e-80
4.957379520204545365e-02 2.501002756151390546e-02 3.457794851937949439e-88
5.150391691226589158e-02 2.407277074565038893e-02 5.580929396173204136e-80
5.350918658727459032e-02 2.317063785504933082e-02 1.629758914002804540e-71
5.559253006153160731e-02 2.230231261213881655e-02 2.943437258870903695e-79
5.775698708485462601e-02 2.146652806716646197e-02 9.217131336397056375e-88
6.000571575763534449e-02 2.066206474962746509e-02 4.074197443390750938e-97
6.234199713873787158e-02 1.988774888896835749e-02 2.046646834743423429e-107
6.476924003280246089e-02 1.914245070197030316e-02 1.006848087470246299e-118
6.729098596393973120e-02 1.842508274431312390e-02 3.948320003113655343e-131
6.991091434307217245e-02 1.773459832391485400e-02 1.603485305253944196e-135
7.263284783646258014e-02 1.706998997373178339e-02 3.327659908520460032e-140
7.546075794326251307e-02 1.643028798179069216e-02 2.845662849749784762e-152
7.839877079021860540e-02 1.581455897630847790e-02 2.090505490110903306e-159
8.145117315199204566e-02 1.522190456383475457e-02 5.440325524986006729e-162
8.462241870587486336e-02 1.465146001843040287e-02 1.783061745990778560e-171
8.791713453002934775e-02 1.410239301996946831e-02 7.463518953240194994e-190
9.134012785473204221e-02 1.357390243972348733e-02 3.285488171970624580e-100
9.489639307647271260e-02 1.306521717145634788e-02 6.156408796507507608e-01
9.859111904514245017e-02 1.257559500632414451e-02 6.096381660085948839e-01
1.024296966349434596e-01 1.210432154993843629e-02 6.041505462161940176e-01
1.064177266100670982e-01 1.165070918001281410e-02 5.982849195745596482e-01
1.105610277966165150e-01 1.121409604307192776e-02 7.171354069178599300e-01
1.148656455726977388e-01 1.079384508875906243e-02 8.823992188158032990e-01
1.193378606890663496e-01 1.038934314033330107e-02 8.776261939517875366e-01
1.239841984332002572e-01 1.000000000000000021e-02 8.892376359027132082e-01
