# SMC bar extinction curve from Gordon et al. (2003),
# retrieved from https://www.stsci.edu/hst/instrumentation/reference-data-for-calibration-and-tools/astronomical-catalogs/interstellar-extinction-curves
# and re-normalized to Av = 1.
# Rv = 2.74
# 1: Rest-frame wavelength [um]
# 2: A(lambda) / Av
# 3: exp[-tau(lambda) / tau(v)]
9.9751e-02    9.6860e+00    6.2148e-05
1.0025e-01    9.5836e+00    6.8850e-05
1.0076e-01    9.4822e+00    7.6197e-05
1.0127e-01    9.3818e+00    8.4241e-05
1.0178e-01    9.2825e+00    9.3040e-05
1.0230e-01    9.1842e+00    1.0265e-04
1.0283e-01    9.0868e+00    1.1315e-04
1.0336e-01    8.9905e+00    1.2459e-04
1.0390e-01    8.8952e+00    1.3704e-04
1.0444e-01    8.8009e+00    1.5060e-04
1.0499e-01    8.7075e+00    1.6534e-04
1.0554e-01    8.6151e+00    1.8134e-04
1.0610e-01    8.5237e+00    1.9871e-04
1.0667e-01    8.4332e+00    2.1752e-04
1.0724e-01    8.3437e+00    2.3789e-04
1.0782e-01    8.2551e+00    2.5993e-04
1.0840e-01    8.1675e+00    2.8373e-04
1.0899e-01    8.0808e+00    3.0943e-04
1.0959e-01    7.9950e+00    3.3716e-04
1.1019e-01    7.9101e+00    3.6701e-04
1.1080e-01    7.8261e+00    3.9917e-04
1.1142e-01    7.7431e+00    4.3374e-04
1.1204e-01    7.6609e+00    4.7089e-04
1.1268e-01    7.5796e+00    5.1077e-04
1.1331e-01    7.4992e+00    5.5353e-04
1.1396e-01    7.4197e+00    5.9935e-04
1.1461e-01    7.3410e+00    6.4841e-04
1.1527e-01    7.2632e+00    7.0088e-04
1.1594e-01    7.1862e+00    7.5696e-04
1.1662e-01    7.1101e+00    8.1681e-04
1.1730e-01    7.0348e+00    8.8068e-04
1.1799e-01    6.9604e+00    9.4875e-04
1.1869e-01    6.8868e+00    1.0212e-03
1.2461e-01    6.3265e+00    1.7882e-03
1.2539e-01    6.2600e+00    1.9112e-03
1.2618e-01    6.1942e+00    2.0412e-03
1.2698e-01    6.1292e+00    2.1783e-03
1.2780e-01    6.0649e+00    2.3230e-03
1.2862e-01    6.0014e+00    2.4754e-03
1.2945e-01    5.9385e+00    2.6360e-03
1.3029e-01    5.8764e+00    2.8049e-03
1.3115e-01    5.8150e+00    2.9825e-03
1.3201e-01    5.7543e+00    3.1691e-03
1.3289e-01    5.6943e+00    3.3651e-03
1.3378e-01    5.6350e+00    3.5707e-03
1.3468e-01    5.5764e+00    3.7862e-03
1.3559e-01    5.5185e+00    4.0120e-03
1.3652e-01    5.4612e+00    4.2484e-03
1.3746e-01    5.4046e+00    4.4959e-03
1.3841e-01    5.3486e+00    4.7546e-03
1.3937e-01    5.2934e+00    5.0249e-03
1.4035e-01    5.2387e+00    5.3070e-03
1.4134e-01    5.1847e+00    5.6014e-03
1.4235e-01    5.1314e+00    5.9084e-03
1.4337e-01    5.0786e+00    6.2283e-03
1.4440e-01    5.0265e+00    6.5615e-03
1.4545e-01    4.9750e+00    6.9083e-03
1.4652e-01    4.9242e+00    7.2688e-03
1.4760e-01    4.8739e+00    7.6435e-03
1.4870e-01    4.8242e+00    8.0327e-03
1.4981e-01    4.7751e+00    8.4369e-03
1.5094e-01    4.7266e+00    8.8562e-03
1.5209e-01    4.6788e+00    9.2905e-03
1.5326e-01    4.6314e+00    9.7409e-03
1.5444e-01    4.5847e+00    1.0207e-02
1.5564e-01    4.5385e+00    1.0689e-02
1.5686e-01    4.4929e+00    1.1188e-02
1.5810e-01    4.4478e+00    1.1704e-02
1.5936e-01    4.4034e+00    1.2236e-02
1.6064e-01    4.3594e+00    1.2786e-02
1.6194e-01    4.3161e+00    1.3352e-02
1.6327e-01    4.2732e+00    1.3936e-02
1.6461e-01    4.2310e+00    1.4538e-02
1.6598e-01    4.1893e+00    1.5157e-02
1.6736e-01    4.1482e+00    1.5793e-02
1.6878e-01    4.1076e+00    1.6447e-02
1.7021e-01    4.0676e+00    1.7119e-02
1.7167e-01    4.0277e+00    1.7816e-02
1.7316e-01    3.9879e+00    1.8538e-02
1.7467e-01    3.9483e+00    1.9287e-02
1.7621e-01    3.9089e+00    2.0062e-02
1.7778e-01    3.8697e+00    2.0864e-02
1.7937e-01    3.8307e+00    2.1694e-02
1.8100e-01    3.7920e+00    2.2551e-02
1.8265e-01    3.7535e+00    2.3435e-02
1.8433e-01    3.7154e+00    2.4346e-02
1.8605e-01    3.6777e+00    2.5282e-02
1.8779e-01    3.6403e+00    2.6244e-02
1.8957e-01    3.6034e+00    2.7230e-02
1.9139e-01    3.5671e+00    2.8239e-02
1.9324e-01    3.5313e+00    2.9268e-02
1.9512e-01    3.4961e+00    3.0316e-02
1.9704e-01    3.4615e+00    3.1382e-02
1.9900e-01    3.4276e+00    3.2466e-02
2.0101e-01    3.3942e+00    3.3567e-02
2.0305e-01    3.3613e+00    3.4689e-02
2.0513e-01    3.3287e+00    3.5841e-02
2.0725e-01    3.2959e+00    3.7034e-02
2.0942e-01    3.2626e+00    3.8289e-02
2.1164e-01    3.2281e+00    3.9631e-02
2.1390e-01    3.1919e+00    4.1094e-02
2.1622e-01    3.1533e+00    4.2711e-02
2.1858e-01    3.1120e+00    4.4513e-02
2.2099e-01    3.0678e+00    4.6521e-02
2.2346e-01    3.0211e+00    4.8746e-02
2.2599e-01    2.9724e+00    5.1183e-02
2.2857e-01    2.9221e+00    5.3818e-02
2.3121e-01    2.8712e+00    5.6632e-02
2.3392e-01    2.8200e+00    5.9604e-02
2.3669e-01    2.7692e+00    6.2715e-02
2.3952e-01    2.7188e+00    6.5953e-02
2.4242e-01    2.6692e+00    6.9308e-02
2.4540e-01    2.6204e+00    7.2777e-02
2.4845e-01    2.5723e+00    7.6360e-02
2.5157e-01    2.5250e+00    8.0060e-02
2.5478e-01    2.4784e+00    8.3880e-02
2.5806e-01    2.4324e+00    8.7829e-02
2.6144e-01    2.3869e+00    9.1911e-02
2.6490e-01    2.3420e+00    9.6137e-02
2.6846e-01    2.2975e+00    1.0051e-01
2.7211e-01    2.2533e+00    1.0505e-01
2.7586e-01    2.2095e+00    1.0976e-01
2.7972e-01    2.1659e+00    1.1464e-01
2.8369e-01    2.1227e+00    1.1971e-01
2.8777e-01    2.0796e+00    1.2498e-01
2.9197e-01    2.0367e+00    1.3046e-01
2.9630e-01    1.9940e+00    1.3615e-01
3.0075e-01    1.9514e+00    1.4208e-01
3.0534e-01    1.9089e+00    1.4824e-01
3.1008e-01    1.8666e+00    1.5465e-01
3.6996e-01    1.6719e+00    1.8789e-01
4.3995e-01    1.3743e+00    2.5301e-01
5.5006e-01    1.0000e+00    3.6788e-01
6.5020e-01    8.0148e-01    4.4866e-01
8.0972e-01    5.6738e-01    5.6701e-01
1.2500e+00    1.3146e-01    8.7681e-01
1.6502e+00    1.6917e-01    8.4437e-01
2.1978e+00    1.5758e-02    9.8437e-01
